%!PS-Adobe-3.0 EPSF-3.0
%%Title: EAGLE Drawing C:/Users/RadhaRamana/Documents/eagle/EDLV2/EDL.brd
%%Creator: EAGLE
%%Pages: 1
%%BoundingBox: 0 0 576 810
%%EndComments

% Coordinate transfer:

/EU { 254 div 0.072 mul } def
/inch { 72 mul } def

% Linestyle:

1 setlinecap
1 setlinejoin

% Drawing functions:

/l {  % draw a line
   /lw exch def
   /y2 exch def
   /x2 exch def
   /y1 exch def
   /x1 exch def
   newpath
   x1 EU y1 EU moveto
   x2 EU y2 EU lineto
   lw EU setlinewidth
   stroke
   } def

/h {  % draw a hole
   /d  exch def
   /y  exch def
   /x  exch def
   d 0 gt {
     newpath
     x EU y EU d 2 div EU 0 360 arc
     currentgray dup
     1 exch sub setgray
     fill
     setgray
     } if
   } def

/b {  % draw a bar
   /an exch def
   /y2 exch def
   /x2 exch def
   /y1 exch def
   /x1 exch def
   /w2 x2 x1 sub 2 div EU def
   /h2 y2 y1 sub 2 div EU def
   gsave
   x1 x2 add 2 div EU y1 y2 add 2 div EU translate
   an rotate
   newpath
   w2     h2     moveto
   w2 neg h2     lineto
   w2 neg h2 neg lineto
   w2     h2 neg lineto
   closepath
   fill
   grestore
   } def

/c {  % draw a circle
   /lw exch def
   /rd exch def
   /y  exch def
   /x  exch def
   newpath
   lw EU setlinewidth
   x EU y EU rd EU 0 360 arc
   stroke
   } def

/a {  % draw an arc
   /lc exch def
   /ae exch def
   /as exch def
   /lw exch def
   /rd exch def
   /y  exch def
   /x  exch def
   lw rd 2 mul gt {
     /rd rd lw 2 div add 2 div def
     /lw rd 2 mul def
     } if
   currentlinecap currentlinejoin
   lc setlinecap 0 setlinejoin
   newpath
   lw EU setlinewidth
   x EU y EU rd EU as ae arc
   stroke
   setlinejoin setlinecap
   } def

/p {  % draw a pie
   /d exch def
   /y exch def
   /x exch def
   newpath
   x EU y EU d 2 div EU 0 360 arc
   fill
   } def

/edge { 0.20710678119 mul } def

/o {  % draw an octagon
   /an exch def
   /dy exch def
   /dx exch def
   /y  exch def
   /x  exch def
   gsave
   x EU y EU translate
   an dx dy lt { 90 add /dx dy /dy dx def def } if rotate
   newpath
      0 dx 2 div sub EU                    0 dy edge  add EU moveto
      0 dx dy sub 2 div sub dy edge sub EU 0 dy 2 div add EU lineto
      0 dx dy sub 2 div add dy edge add EU 0 dy 2 div add EU lineto
      0 dx 2 div add EU                    0 dy edge  add EU lineto
      0 dx 2 div add EU                    0 dy edge  sub EU lineto
      0 dx dy sub 2 div add dy edge add EU 0 dy 2 div sub EU lineto
      0 dx dy sub 2 div sub dy edge sub EU 0 dy 2 div sub EU lineto
      0 dx 2 div sub EU                    0 dy edge  sub EU lineto
   closepath
   fill
   grestore
   } def

% the real drawing size:

/MinDrawX      0 EU def
/MinDrawY      0 EU def
/MaxDrawX 1044756 EU def
/MaxDrawY 1057912 EU def

% the usable page size:

/LeftMargin 0.25 inch def  % change these if drawing gets clipped!
/BotMargin  0.25 inch def
/PageWidth   7.7500 inch def
/PageHeight 11.0000 inch def

% are we going to rotate?:

/RotateDrawing 0 0 ne def

% Media size functions:

/AbortMessage {  % Show a message in a box and stop printing
   /h 100 def
   /Courier findfont 12 scalefont setfont
   mediawidth pagemargin sub h 1 setpage
   newpath
   0 0 moveto
   0 h rlineto
   mediawidth pagemargin sub 0 rlineto
   0 h neg rlineto
   closepath
   5 setlinewidth
   stroke
   newpath 50 60 moveto (ERROR: Jobsize exceeds physical printing area!) show
   newpath 50 40 moveto (       Job has been aborted!) show
   showpage
   stop
   } def

/SelectPage {  % Select the page identified by Row and Column
   /Column exch def
   /Row    exch def

   % the actually exposed area (if the machine knows these parameters!):

   /DrawX MaxDrawX MinDrawX sub def
   /DrawY MaxDrawY MinDrawY sub def
   statusdict /setpage known
   statusdict /mediawidth known and
   statusdict /medialength known and
   statusdict /pagemargin known and {
      % this is for machines that can tell the media size:
      statusdict begin
         /MediaW mediawidth pagemargin sub def
         DrawX DrawY ge {
            DrawX MediaW le DrawY medialength le and {
               MediaW DrawY 1 setpage
               MediaW DrawX sub 2 div 0 translate
               }{
            DrawY MediaW le DrawX medialength le and {
               MediaW DrawX 0 setpage
               0 MediaW DrawY sub 2 div translate
               }{
               AbortMessage
               } ifelse
               } ifelse
            }{
            DrawY MediaW le DrawX medialength le and {
               MediaW DrawX 0 setpage
               0 MediaW DrawY sub 2 div translate
               }{
            DrawX MediaW le DrawY medialength le and {
               MediaW DrawY 1 setpage
               MediaW DrawX sub 2 div 0 translate
               }{
               AbortMessage
               } ifelse
               } ifelse
            } ifelse
         end
      }{
      % this is for machines that can NOT tell the media size:
      % (Ghostscript doesn't like this!)
      /Product product length string def
      /i 0 def
      product { dup 97 lt { 32 add } if Product exch i exch put /i i 1 add def } forall 
      Product (ghostscript) search dup /IsGhostscript exch def
      { pop pop } if
      pop
      IsGhostscript not {
         statusdict /setpage known {
            statusdict begin
               RotateDrawing {
                  LeftMargin PageHeight add BotMargin DrawY add
                  }{
                  BotMargin DrawY add LeftMargin DrawX add 
                  } ifelse
               0 setpage
               end
            } if
         } if
      % set clipping boundary:
      newpath
      LeftMargin BotMargin moveto
      0 PageHeight rlineto
      PageWidth  0 rlineto
      0 PageHeight neg rlineto
      closepath
      clip
      % set the origin:
      LeftMargin BotMargin translate
      RotateDrawing {
         0 PageHeight translate
         -90 rotate
         PageHeight Column mul neg PageWidth Row mul neg translate
         }{
         PageWidth Column mul neg PageHeight Row mul neg translate
         } ifelse
      } ifelse
   % move the lower left corner of the drawing to the origin:
   MinDrawX neg MinDrawY neg translate
   
   % Linestyle:
   
   1 setlinecap
   1 setlinejoin
   
   % invert drawing:
   newpath
   MinDrawX MinDrawY moveto
   MaxDrawX MinDrawY lineto
   MaxDrawX MaxDrawY lineto
   MinDrawX MaxDrawY lineto
   0 setgray
   closepath fill
   1 setgray
   
   } def

% TheDrawing

gsave 0 0 SelectPage
2540 2540 1042216 2540 0 l
1042216 2540 1042216 1055372 0 l
1042216 1055372 2540 1055372 0 l
2540 1055372 2540 2540 0 l
975868 60452 15000 0 c
975868 60452 9906 254 c
965708 50292 986028 70612 254 l
971804 1004824 15000 0 c
971804 1004824 9906 254 c
961644 994664 981964 1014984 254 l
69088 1004316 15000 0 c
69088 1004316 9906 254 c
58928 994156 79248 1014476 254 l
80772 56388 15000 0 c
80772 56388 9906 254 c
70612 46228 90932 66548 254 l
839978 979678 839978 995948 1524 l
839978 995948 831843 995948 1524 l
831843 995948 829131 993236 1524 l
829131 993236 829131 990525 1524 l
829131 990525 831843 987813 1524 l
831843 987813 829131 985101 1524 l
829131 985101 829131 982390 1524 l
829131 982390 831843 979678 1524 l
831843 979678 839978 979678 1524 l
839978 987813 831843 987813 1524 l
815472 995948 820895 995948 1524 l
820895 995948 823606 993236 1524 l
823606 993236 823606 982390 1524 l
823606 982390 820895 979678 1524 l
820895 979678 815472 979678 1524 l
815472 979678 812760 982390 1524 l
812760 982390 812760 993236 1524 l
812760 993236 815472 995948 1524 l
801812 979678 801812 995948 1524 l
807235 995948 796388 995948 1524 l
785440 979678 785440 995948 1524 l
790863 995948 780017 995948 1524 l
766357 995948 771780 995948 1524 l
771780 995948 774492 993236 1524 l
774492 993236 774492 982390 1524 l
774492 982390 771780 979678 1524 l
771780 979678 766357 979678 1524 l
766357 979678 763645 982390 1524 l
763645 982390 763645 993236 1524 l
763645 993236 766357 995948 1524 l
758120 979678 758120 995948 1524 l
758120 995948 752697 990525 1524 l
752697 990525 747274 995948 1524 l
747274 995948 747274 979678 1524 l
916432 299720 916432 312928 13208 l
916432 401320 916432 414528 13208 l
916432 83820 916432 97028 13208 l
916432 185420 916432 198628 13208 l
624332 83820 624332 97028 13208 l
624332 185420 624332 198628 13208 l
332232 83820 332232 97028 13208 l
332232 185420 332232 198628 13208 l
332232 299720 332232 312928 13208 l
332232 401320 332232 414528 13208 l
332232 744220 332232 757428 13208 l
332232 845820 332232 859028 13208 l
624332 744220 624332 757428 13208 l
624332 845820 624332 859028 13208 l
916432 744220 916432 757428 13208 l
916432 845820 916432 859028 13208 l
107379 613264 125286 613264 17907 l
107379 563264 125286 563264 17907 l
325628 712724 338836 712724 13208 l
325628 687324 338836 687324 13208 l
325628 560324 338836 560324 13208 l
401828 560324 415036 560324 13208 l
325628 661924 338836 661924 13208 l
325628 636524 338836 636524 13208 l
325628 585724 338836 585724 13208 l
325628 611124 338836 611124 13208 l
401828 585724 415036 585724 13208 l
401828 611124 415036 611124 13208 l
401828 636524 415036 636524 13208 l
401828 661924 415036 661924 13208 l
401828 687324 415036 687324 13208 l
401828 712724 415036 712724 13208 l
484632 674624 16002 16002 0.0 o
484632 649224 16002 16002 0.0 o
560832 598424 16002 16002 0.0 o
560832 623824 16002 16002 0.0 o
484632 623824 16002 16002 0.0 o
484632 598424 16002 16002 0.0 o
560832 649224 16002 16002 0.0 o
560832 674624 16002 16002 0.0 o
401828 407924 415036 407924 13208 l
401828 382524 415036 382524 13208 l
401828 255524 415036 255524 13208 l
478028 255524 491236 255524 13208 l
401828 357124 415036 357124 13208 l
401828 331724 415036 331724 13208 l
401828 280924 415036 280924 13208 l
401828 306324 415036 306324 13208 l
478028 280924 491236 280924 13208 l
478028 306324 491236 306324 13208 l
478028 331724 491236 331724 13208 l
478028 357124 491236 357124 13208 l
478028 382524 491236 382524 13208 l
478028 407924 491236 407924 13208 l
713232 526542 713232 543306 16764 l
738632 526542 738632 543306 16764 l
764032 526542 764032 543306 16764 l
738632 684784 16510 0 c
738632 684784 9906 254 c
728472 674624 748792 694944 254 l
820928 712724 834136 712724 13208 l
820928 687324 834136 687324 13208 l
820928 560324 834136 560324 13208 l
897128 560324 910336 560324 13208 l
820928 661924 834136 661924 13208 l
820928 636524 834136 636524 13208 l
820928 585724 834136 585724 13208 l
820928 611124 834136 611124 13208 l
897128 585724 910336 585724 13208 l
897128 611124 910336 611124 13208 l
897128 636524 910336 636524 13208 l
897128 661924 910336 661924 13208 l
897128 687324 910336 687324 13208 l
897128 712724 910336 712724 13208 l
535432 463804 535432 479044 15240 l
560832 463804 560832 479044 15240 l
586232 463804 586232 479044 15240 l
611632 463804 611632 479044 15240 l
637032 463804 637032 479044 15240 l
662432 463804 662432 479044 15240 l
687832 463804 687832 479044 15240 l
713232 463804 713232 479044 15240 l
738632 463804 738632 479044 15240 l
764032 463804 764032 479044 15240 l
878332 402844 878332 387604 15240 l
802132 402844 802132 387604 15240 l
751332 402844 751332 387604 15240 l
700532 402844 700532 387604 15240 l
700532 326644 700532 311404 15240 l
751332 326644 751332 311404 15240 l
802132 326644 802132 311404 15240 l
878332 326644 878332 311404 15240 l
878332 186944 878332 171704 15240 l
802132 186944 802132 171704 15240 l
751332 186944 751332 171704 15240 l
700532 186944 700532 171704 15240 l
700532 110744 700532 95504 15240 l
751332 110744 751332 95504 15240 l
802132 110744 802132 95504 15240 l
878332 110744 878332 95504 15240 l
586232 186944 586232 171704 15240 l
510032 186944 510032 171704 15240 l
459232 186944 459232 171704 15240 l
408432 186944 408432 171704 15240 l
408432 110744 408432 95504 15240 l
459232 110744 459232 95504 15240 l
510032 110744 510032 95504 15240 l
586232 110744 586232 95504 15240 l
294132 186944 294132 171704 15240 l
217932 186944 217932 171704 15240 l
167132 186944 167132 171704 15240 l
116332 186944 116332 171704 15240 l
116332 110744 116332 95504 15240 l
167132 110744 167132 95504 15240 l
217932 110744 217932 95504 15240 l
294132 110744 294132 95504 15240 l
294132 415544 294132 400304 15240 l
217932 415544 217932 400304 15240 l
167132 415544 167132 400304 15240 l
116332 415544 116332 400304 15240 l
116332 339344 116332 324104 15240 l
167132 339344 167132 324104 15240 l
217932 339344 217932 324104 15240 l
294132 339344 294132 324104 15240 l
294132 847344 294132 832104 15240 l
217932 847344 217932 832104 15240 l
167132 847344 167132 832104 15240 l
116332 847344 116332 832104 15240 l
116332 771144 116332 755904 15240 l
167132 771144 167132 755904 15240 l
217932 771144 217932 755904 15240 l
294132 771144 294132 755904 15240 l
586232 847344 586232 832104 15240 l
510032 847344 510032 832104 15240 l
459232 847344 459232 832104 15240 l
408432 847344 408432 832104 15240 l
408432 771144 408432 755904 15240 l
459232 771144 459232 755904 15240 l
510032 771144 510032 755904 15240 l
586232 771144 586232 755904 15240 l
878332 847344 878332 832104 15240 l
802132 847344 802132 832104 15240 l
751332 847344 751332 832104 15240 l
700532 847344 700532 832104 15240 l
700532 771144 700532 755904 15240 l
751332 771144 751332 755904 15240 l
802132 771144 802132 755904 15240 l
878332 771144 878332 755904 15240 l
573532 712724 13208 13208 180.0 o
471932 712724 13208 13208 180.0 o
637032 331724 13208 13208 0.0 o
637032 230124 13208 13208 0.0 o
667004 179324 13208 13208 0.0 o
667004 280924 13208 13208 0.0 o
357632 166624 13208 13208 0.0 o
357632 268224 13208 13208 0.0 o
78232 103124 13208 13208 0.0 o
78232 204724 13208 13208 0.0 o
78232 331724 13208 13208 0.0 o
78232 230124 13208 13208 0.0 o
107379 717404 125286 717404 17907 l
107379 667404 125286 667404 17907 l
107379 509124 125286 509124 17907 l
107379 459124 125286 459124 17907 l
649732 567944 649732 552704 15240 l
624332 567944 624332 552704 15240 l
598932 567944 598932 552704 15240 l
573532 567944 573532 552704 15240 l
662432 649224 13208 13208 0.0 o
713232 649224 13208 13208 0.0 o
789432 636524 13208 13208 180.0 o
738632 636524 13208 13208 180.0 o
243948 943674 243948 925767 17907 l
193948 943674 193948 925767 17907 l
217932 331724 217932 179324 6096 l
217932 179324 217932 153924 6096 l
217932 153924 230632 141224 6096 l
230632 141224 510032 141224 6096 l
510032 141224 789432 141224 6096 l
789432 141224 802132 153924 6096 l
802132 153924 802132 179324 6096 l
510032 179324 510032 141224 6096 l
560832 598424 611632 598424 6096 l
611632 598424 624332 585724 6096 l
624332 585724 624332 560324 6096 l
649732 560324 624332 560324 6096 l
649732 560324 649732 547624 6096 l
649732 547624 700532 496824 6096 l
700532 496824 814832 496824 6096 l
814832 496824 840232 471424 6096 l
840232 471424 840232 395224 6096 l
840232 395224 10064 p
840232 395224 11064 p
840232 395224 11684 p
116332 459124 161108 459124 6096 l
161108 456584 2540 6096 45.00 90.00 1 a
162904 458380 193802 427482 6096 l
217932 331724 217932 353786 6096 l
215392 353786 2540 6096 0.00 45.00 1 a
217188 355582 193802 378968 6096 l
193802 378968 193802 427482 6096 l
800100 267716 20000 p
800100 267716 800100 315940 6096 l
802640 315940 2540 6096 135.00 180.00 1 a
800844 317736 802132 319024 6096 l
802132 179324 802132 264632 6096 l
799592 264632 2540 6096 0.00 45.00 1 a
801388 266428 800100 267716 6096 l
408432 636524 446532 636524 6096 l
446532 636524 484632 598424 6096 l
193948 934720 146304 934720 6096 l
146304 934720 76708 865124 6096 l
76708 865124 76708 548132 6096 l
76708 548132 88900 535940 6096 l
88900 535940 214884 535940 6096 l
214884 535940 239268 511556 6096 l
239268 511556 426212 511556 6096 l
426212 511556 483108 568452 6096 l
483108 568452 483108 596900 6096 l
483108 596900 484632 598424 6096 l
408432 560324 408432 585724 6096 l
357632 611124 332232 611124 6096 l
198628 613156 20000 p
198520 613156 108 6096 0.00 90.00 1 a
198520 613264 116332 613264 6096 l
283972 613156 20000 p
283972 613156 329148 613156 6096 l
329148 610616 2540 6096 45.00 90.00 1 a
330944 612412 332232 611124 6096 l
377444 584708 20000 p
378460 584708 1016 6096 90.00 180.00 1 a
378460 585724 408432 585724 6096 l
357632 611124 376700 592056 6096 l
374904 590260 2540 6096 0.00 45.00 1 a
377444 590260 377444 584708 6096 l
116332 717404 200552 717404 6096 l
200552 717404 230632 687324 6096 l
230632 687324 230632 585724 6096 l
446532 560324 446532 598424 6096 l
446532 598424 433832 611124 6096 l
433832 611124 408432 611124 6096 l
230632 585724 281432 534924 6096 l
281432 534924 421132 534924 6096 l
421132 534924 446532 560324 6096 l
78232 204724 78232 230124 6096 l
408432 661924 446532 661924 6096 l
446532 661924 459232 649224 6096 l
459232 649224 484632 649224 6096 l
637032 230124 648716 230124 6096 l
648716 230124 665988 247396 6096 l
665988 247396 665988 279908 6096 l
665988 279908 667004 280924 6096 l
194564 564388 20000 p
193440 564388 1124 6096 270.00 360.00 1 a
193440 563264 116332 563264 6096 l
471932 712724 471932 687324 6096 l
471932 687324 484632 674624 6096 l
573532 712724 573532 687324 6096 l
573532 687324 560832 674624 6096 l
827532 560324 802132 560324 6096 l
802132 560324 789432 573024 6096 l
789432 573024 751332 573024 6096 l
738632 560324 738632 534924 6096 l
573532 560324 598932 560324 6096 l
450596 255524 20000 p
450596 255524 408432 255524 6096 l
751332 573024 738632 560324 6096 l
738632 534924 738632 636524 6096 l
878332 395224 891032 395224 6096 l
891032 395224 903732 407924 6096 l
903732 407924 916432 407924 6096 l
484632 357124 510032 357124 6096 l
510032 357124 522732 369824 6096 l
522732 369824 865632 369824 6096 l
865632 369824 878332 382524 6096 l
878332 382524 878332 395224 6096 l
878332 179324 891032 179324 6096 l
891032 179324 903732 192024 6096 l
903732 192024 916432 192024 6096 l
878332 179324 865632 179324 6096 l
865632 179324 840232 204724 6096 l
840232 204724 840232 319024 6096 l
840232 319024 814832 344424 6096 l
814832 344424 560832 344424 6096 l
560832 344424 522732 306324 6096 l
522732 306324 484632 306324 6096 l
586232 179324 598932 179324 6096 l
598932 179324 611632 192024 6096 l
611632 192024 624332 192024 6096 l
586232 179324 548132 179324 6096 l
548132 179324 484632 242824 6096 l
484632 242824 484632 255524 6096 l
294132 179324 306832 179324 6096 l
306832 179324 319532 192024 6096 l
319532 192024 332232 192024 6096 l
332232 192024 357632 192024 6096 l
357632 192024 370332 204724 6096 l
370332 204724 370332 255524 6096 l
370332 255524 395732 280924 6096 l
395732 280924 408432 280924 6096 l
332232 407924 332232 382524 6096 l
332232 382524 383032 331724 6096 l
383032 331724 408432 331724 6096 l
332232 407924 294132 407924 6096 l
637032 331724 649732 319024 6096 l
649732 319024 700532 319024 6096 l
667004 179324 700532 179324 6096 l
357632 166624 370332 166624 6096 l
370332 166624 383032 179324 6096 l
383032 179324 408432 179324 6096 l
78232 103124 78232 166624 6096 l
78232 166624 90932 179324 6096 l
90932 179324 116332 179324 6096 l
78232 331724 116332 331724 6096 l
332232 560324 332232 585724 6096 l
116332 763524 129032 763524 6096 l
129032 763524 154432 738124 6096 l
154432 738124 205232 738124 6096 l
205232 738124 256032 687324 6096 l
256032 687324 256032 611124 6096 l
256032 611124 281432 585724 6096 l
281432 585724 332232 585724 6096 l
873252 637540 20000 p
873252 637540 873524 637268 6096 l
875320 639064 2540 6096 225.00 270.00 1 a
875320 636524 903732 636524 6096 l
690372 442468 20000 p
690372 442468 688576 444264 6096 l
690372 446060 2540 6096 180.00 225.00 1 a
687832 446060 687832 471424 6096 l
865124 686308 20000 p
865124 686308 865396 686580 6096 l
867192 684784 2540 6096 90.00 135.00 1 a
867192 687324 903732 687324 6096 l
661924 442468 20000 p
660698 443694 1734 6096 315.00 360.00 1 a
662432 443694 662432 471424 6096 l
869188 584708 20000 p
869188 584708 869460 584980 6096 l
871256 583184 2540 6096 90.00 135.00 1 a
871256 585724 903732 585724 6096 l
560832 623824 586232 623824 6096 l
586232 623824 700532 738124 6096 l
700532 738124 700532 763524 6096 l
198628 667258 20000 p
198628 667258 116684 667258 6096 l
116684 667756 498 6096 225.00 270.00 1 a
230632 801624 20000 p
230632 801624 218676 789668 6096 l
220472 787872 2540 6096 135.00 180.00 1 a
217932 787872 217932 763524 6096 l
541020 732282 20000 p
541020 732282 520990 732282 6096 l
520990 734822 2540 6096 225.00 270.00 1 a
519194 733026 510032 742188 6096 l
510032 742188 510032 763524 6096 l
832612 751332 20000 p
832612 751332 825228 743948 6096 l
823432 745744 2540 6096 270.00 315.00 1 a
823432 743204 804164 743204 6096 l
804164 743204 802876 744492 6096 l
804672 746288 2540 6096 180.00 225.00 1 a
802132 746288 802132 763524 6096 l
484632 382524 497332 382524 6096 l
497332 382524 535432 420624 6096 l
535432 420624 535432 471424 6096 l
560324 426212 20000 p
559098 427438 1734 6096 315.00 360.00 1 a
560832 427438 560832 471424 6096 l
588772 426212 20000 p
588772 426212 586976 428008 6096 l
588772 429804 2540 6096 180.00 225.00 1 a
586232 429804 586232 471424 6096 l
446532 288036 20000 p
446532 288036 452900 281668 6096 l
454696 283464 2540 6096 225.00 270.00 1 a
454696 280924 484632 280924 6096 l
408432 306324 421132 306324 6096 l
421132 306324 459232 344424 6096 l
459232 344424 459232 433324 6096 l
459232 433324 522732 496824 6096 l
522732 496824 624332 496824 6096 l
624332 496824 637032 484124 6096 l
637032 484124 637032 471424 6096 l
438404 357124 20000 p
438404 357124 408432 357124 6096 l
789432 636524 789432 719292 6096 l
791972 719292 2540 6096 135.00 180.00 1 a
790176 721088 796036 726948 6096 l
796036 726948 888456 726948 6096 l
888456 724408 2540 6096 45.00 90.00 1 a
890252 726204 903732 712724 6096 l
804164 535940 20000 p
804164 535940 766100 535940 6096 l
766100 533400 2540 6096 90.00 135.00 1 a
764304 535196 764032 534924 6096 l
484632 407924 484632 422620 6096 l
487172 422620 2540 6096 135.00 180.00 1 a
485376 424416 499364 438404 6096 l
499364 438404 20000 p
637540 385572 20000 p
637540 385572 652744 385572 6096 l
652744 388112 2540 6096 270.00 315.00 1 a
654540 386316 690372 422148 6096 l
690372 422148 742152 422148 6096 l
742152 424688 2540 6096 270.00 315.00 1 a
743948 422892 767588 446532 6096 l
767588 446532 767588 466816 6096 l
765048 466816 2540 6096 0.00 45.00 1 a
766844 468612 764032 471424 6096 l
294132 839724 306832 839724 6096 l
306832 839724 319532 852424 6096 l
319532 852424 332232 852424 6096 l
903732 560324 941832 560324 6096 l
941832 560324 967232 585724 6096 l
967232 585724 967232 865124 6096 l
967232 865124 941832 890524 6096 l
941832 890524 395732 890524 6096 l
395732 890524 357632 852424 6096 l
357632 852424 332232 852424 6096 l
624332 852424 611632 852424 6096 l
611632 852424 598932 839724 6096 l
598932 839724 586232 839724 6096 l
903732 611124 941832 611124 6096 l
941832 611124 954532 623824 6096 l
954532 623824 954532 852424 6096 l
954532 852424 929132 877824 6096 l
929132 877824 675132 877824 6096 l
675132 877824 649732 852424 6096 l
649732 852424 624332 852424 6096 l
916432 852424 903732 852424 6096 l
903732 852424 891032 839724 6096 l
891032 839724 878332 839724 6096 l
903732 661924 929132 661924 6096 l
929132 661924 941832 674624 6096 l
941832 674624 941832 839724 6096 l
941832 839724 929132 852424 6096 l
929132 852424 916432 852424 6096 l
294132 103124 294132 77724 6096 l
294132 77724 306832 65024 6096 l
306832 65024 332232 65024 6096 l
332232 65024 586232 65024 6096 l
586232 65024 624332 65024 6096 l
624332 65024 878332 65024 6096 l
878332 65024 903732 65024 6096 l
903732 65024 916432 77724 6096 l
916432 77724 916432 90424 6096 l
878332 103124 878332 65024 6096 l
624332 90424 624332 65024 6096 l
586232 103124 586232 65024 6096 l
332232 90424 332232 65024 6096 l
878332 103124 878332 128524 6096 l
878332 128524 891032 141224 6096 l
891032 141224 916432 141224 6096 l
916432 141224 941832 166624 6096 l
878332 319024 891032 319024 6096 l
891032 319024 903732 306324 6096 l
903732 306324 916432 306324 6096 l
713232 534924 713232 522224 6096 l
713232 522224 725932 509524 6096 l
725932 509524 865632 509524 6096 l
865632 509524 941832 433324 6096 l
941832 433324 941832 306324 6096 l
941832 306324 941832 166624 6096 l
916432 306324 941832 306324 6096 l
294132 331724 319532 331724 6096 l
319532 331724 332232 319024 6096 l
332232 319024 332232 306324 6096 l
662432 649224 662432 623824 6096 l
662432 623824 713232 573024 6096 l
713232 573024 713232 534924 6096 l
255524 105156 20000 p
255524 105156 256812 103868 6096 l
258608 105664 2540 6096 225.00 270.00 1 a
258608 103124 294132 103124 6096 l
916432 750824 916432 776224 6096 l
916432 776224 891032 801624 6096 l
891032 801624 878332 801624 6096 l
878332 801624 624332 801624 6096 l
624332 801624 586232 801624 6096 l
586232 801624 332232 801624 6096 l
332232 801624 306832 801624 6096 l
306832 801624 294132 788924 6096 l
294132 788924 294132 787908 6096 l
294132 787908 294132 763524 6096 l
332232 750824 332232 801624 6096 l
586232 763524 586232 801624 6096 l
624332 750824 624332 801624 6096 l
878332 763524 878332 801624 6096 l
560832 649224 586232 649224 6096 l
586232 649224 624332 687324 6096 l
624332 687324 624332 750824 6096 l
332232 750824 319532 750824 6096 l
319532 750824 294132 725424 6096 l
294132 725424 294132 661924 6096 l
294132 661924 319532 636524 6096 l
319532 636524 332232 636524 6096 l
243948 934720 243948 838092 6096 l
243948 838092 294132 787908 6096 l
408432 687324 408432 712724 6096 l
408432 712724 408432 763524 6096 l
916432 306324 8128 h
916432 407924 8128 h
916432 90424 8128 h
916432 192024 8128 h
624332 90424 8128 h
624332 192024 8128 h
332232 90424 8128 h
332232 192024 8128 h
332232 306324 8128 h
332232 407924 8128 h
332232 750824 8128 h
332232 852424 8128 h
624332 750824 8128 h
624332 852424 8128 h
916432 750824 8128 h
916432 852424 8128 h
116332 613264 11938 h
116332 563264 11938 h
332232 712724 8128 h
332232 687324 8128 h
332232 560324 8128 h
408432 560324 8128 h
332232 661924 8128 h
332232 636524 8128 h
332232 585724 8128 h
332232 611124 8128 h
408432 585724 8128 h
408432 611124 8128 h
408432 636524 8128 h
408432 661924 8128 h
408432 687324 8128 h
408432 712724 8128 h
484632 674624 8128 h
484632 649224 8128 h
560832 598424 8128 h
560832 623824 8128 h
484632 623824 8128 h
484632 598424 8128 h
560832 649224 8128 h
560832 674624 8128 h
408432 407924 8128 h
408432 382524 8128 h
408432 255524 8128 h
484632 255524 8128 h
408432 357124 8128 h
408432 331724 8128 h
408432 280924 8128 h
408432 306324 8128 h
484632 280924 8128 h
484632 306324 8128 h
484632 331724 8128 h
484632 357124 8128 h
484632 382524 8128 h
484632 407924 8128 h
713232 534924 11176 h
738632 534924 11176 h
764032 534924 11176 h
827532 712724 8128 h
827532 687324 8128 h
827532 560324 8128 h
903732 560324 8128 h
827532 661924 8128 h
827532 636524 8128 h
827532 585724 8128 h
827532 611124 8128 h
903732 585724 8128 h
903732 611124 8128 h
903732 636524 8128 h
903732 661924 8128 h
903732 687324 8128 h
903732 712724 8128 h
535432 471424 10160 h
560832 471424 10160 h
586232 471424 10160 h
611632 471424 10160 h
637032 471424 10160 h
662432 471424 10160 h
687832 471424 10160 h
713232 471424 10160 h
738632 471424 10160 h
764032 471424 10160 h
878332 395224 10160 h
802132 395224 10160 h
751332 395224 10160 h
700532 395224 10160 h
700532 319024 10160 h
751332 319024 10160 h
802132 319024 10160 h
878332 319024 10160 h
878332 179324 10160 h
802132 179324 10160 h
751332 179324 10160 h
700532 179324 10160 h
700532 103124 10160 h
751332 103124 10160 h
802132 103124 10160 h
878332 103124 10160 h
586232 179324 10160 h
510032 179324 10160 h
459232 179324 10160 h
408432 179324 10160 h
408432 103124 10160 h
459232 103124 10160 h
510032 103124 10160 h
586232 103124 10160 h
294132 179324 10160 h
217932 179324 10160 h
167132 179324 10160 h
116332 179324 10160 h
116332 103124 10160 h
167132 103124 10160 h
217932 103124 10160 h
294132 103124 10160 h
294132 407924 10160 h
217932 407924 10160 h
167132 407924 10160 h
116332 407924 10160 h
116332 331724 10160 h
167132 331724 10160 h
217932 331724 10160 h
294132 331724 10160 h
294132 839724 10160 h
217932 839724 10160 h
167132 839724 10160 h
116332 839724 10160 h
116332 763524 10160 h
167132 763524 10160 h
217932 763524 10160 h
294132 763524 10160 h
586232 839724 10160 h
510032 839724 10160 h
459232 839724 10160 h
408432 839724 10160 h
408432 763524 10160 h
459232 763524 10160 h
510032 763524 10160 h
586232 763524 10160 h
878332 839724 10160 h
802132 839724 10160 h
751332 839724 10160 h
700532 839724 10160 h
700532 763524 10160 h
751332 763524 10160 h
802132 763524 10160 h
878332 763524 10160 h
573532 712724 8128 h
471932 712724 8128 h
637032 331724 8128 h
637032 230124 8128 h
667004 179324 8128 h
667004 280924 8128 h
357632 166624 8128 h
357632 268224 8128 h
78232 103124 8128 h
78232 204724 8128 h
78232 331724 8128 h
78232 230124 8128 h
116332 717404 11938 h
116332 667404 11938 h
116332 509124 11938 h
116332 459124 11938 h
649732 560324 10160 h
624332 560324 10160 h
598932 560324 10160 h
573532 560324 10160 h
662432 649224 8128 h
713232 649224 8128 h
789432 636524 8128 h
738632 636524 8128 h
243948 934720 11938 h
193948 934720 11938 h
840232 395224 6000 h
840232 395224 7000 h
840232 395224 7620 h
800100 267716 10000 h
198628 613156 10000 h
283972 613156 10000 h
377444 584708 10000 h
194564 564388 10000 h
450596 255524 10000 h
873252 637540 10000 h
690372 442468 10000 h
865124 686308 10000 h
661924 442468 10000 h
869188 584708 10000 h
198628 667258 10000 h
230632 801624 10000 h
541020 732282 10000 h
832612 751332 10000 h
560324 426212 10000 h
588772 426212 10000 h
446532 288036 10000 h
438404 357124 10000 h
804164 535940 10000 h
499364 438404 10000 h
637540 385572 10000 h
255524 105156 10000 h
showpage grestore
