%!PS-Adobe-3.0 EPSF-3.0
%%Title: EAGLE Drawing C:/Users/RadhaRamana/Documents/eagle/EDLV2/EDL.brd
%%Creator: EAGLE
%%Pages: 1
%%BoundingBox: 0 0 576 810
%%EndComments

% Coordinate transfer:

/EU { 254 div 0.072 mul } def
/inch { 72 mul } def

% Linestyle:

1 setlinecap
1 setlinejoin

% Drawing functions:

/l {  % draw a line
   /lw exch def
   /y2 exch def
   /x2 exch def
   /y1 exch def
   /x1 exch def
   newpath
   x1 EU y1 EU moveto
   x2 EU y2 EU lineto
   lw EU setlinewidth
   stroke
   } def

/h {  % draw a hole
   /d  exch def
   /y  exch def
   /x  exch def
   d 0 gt {
     newpath
     x EU y EU d 2 div EU 0 360 arc
     currentgray dup
     1 exch sub setgray
     fill
     setgray
     } if
   } def

/b {  % draw a bar
   /an exch def
   /y2 exch def
   /x2 exch def
   /y1 exch def
   /x1 exch def
   /w2 x2 x1 sub 2 div EU def
   /h2 y2 y1 sub 2 div EU def
   gsave
   x1 x2 add 2 div EU y1 y2 add 2 div EU translate
   an rotate
   newpath
   w2     h2     moveto
   w2 neg h2     lineto
   w2 neg h2 neg lineto
   w2     h2 neg lineto
   closepath
   fill
   grestore
   } def

/c {  % draw a circle
   /lw exch def
   /rd exch def
   /y  exch def
   /x  exch def
   newpath
   lw EU setlinewidth
   x EU y EU rd EU 0 360 arc
   stroke
   } def

/a {  % draw an arc
   /lc exch def
   /ae exch def
   /as exch def
   /lw exch def
   /rd exch def
   /y  exch def
   /x  exch def
   lw rd 2 mul gt {
     /rd rd lw 2 div add 2 div def
     /lw rd 2 mul def
     } if
   currentlinecap currentlinejoin
   lc setlinecap 0 setlinejoin
   newpath
   lw EU setlinewidth
   x EU y EU rd EU as ae arc
   stroke
   setlinejoin setlinecap
   } def

/p {  % draw a pie
   /d exch def
   /y exch def
   /x exch def
   newpath
   x EU y EU d 2 div EU 0 360 arc
   fill
   } def

/edge { 0.20710678119 mul } def

/o {  % draw an octagon
   /an exch def
   /dy exch def
   /dx exch def
   /y  exch def
   /x  exch def
   gsave
   x EU y EU translate
   an dx dy lt { 90 add /dx dy /dy dx def def } if rotate
   newpath
      0 dx 2 div sub EU                    0 dy edge  add EU moveto
      0 dx dy sub 2 div sub dy edge sub EU 0 dy 2 div add EU lineto
      0 dx dy sub 2 div add dy edge add EU 0 dy 2 div add EU lineto
      0 dx 2 div add EU                    0 dy edge  add EU lineto
      0 dx 2 div add EU                    0 dy edge  sub EU lineto
      0 dx dy sub 2 div add dy edge add EU 0 dy 2 div sub EU lineto
      0 dx dy sub 2 div sub dy edge sub EU 0 dy 2 div sub EU lineto
      0 dx 2 div sub EU                    0 dy edge  sub EU lineto
   closepath
   fill
   grestore
   } def

% the real drawing size:

/MinDrawX      0 EU def
/MinDrawY      0 EU def
/MaxDrawX 1044756 EU def
/MaxDrawY 1057912 EU def

% the usable page size:

/LeftMargin 0.25 inch def  % change these if drawing gets clipped!
/BotMargin  0.25 inch def
/PageWidth   7.7500 inch def
/PageHeight 11.0000 inch def

% are we going to rotate?:

/RotateDrawing 0 0 ne def

% Media size functions:

/AbortMessage {  % Show a message in a box and stop printing
   /h 100 def
   /Courier findfont 12 scalefont setfont
   mediawidth pagemargin sub h 1 setpage
   newpath
   0 0 moveto
   0 h rlineto
   mediawidth pagemargin sub 0 rlineto
   0 h neg rlineto
   closepath
   5 setlinewidth
   stroke
   newpath 50 60 moveto (ERROR: Jobsize exceeds physical printing area!) show
   newpath 50 40 moveto (       Job has been aborted!) show
   showpage
   stop
   } def

/SelectPage {  % Select the page identified by Row and Column
   /Column exch def
   /Row    exch def

   % the actually exposed area (if the machine knows these parameters!):

   /DrawX MaxDrawX MinDrawX sub def
   /DrawY MaxDrawY MinDrawY sub def
   statusdict /setpage known
   statusdict /mediawidth known and
   statusdict /medialength known and
   statusdict /pagemargin known and {
      % this is for machines that can tell the media size:
      statusdict begin
         /MediaW mediawidth pagemargin sub def
         DrawX DrawY ge {
            DrawX MediaW le DrawY medialength le and {
               MediaW DrawY 1 setpage
               MediaW DrawX sub 2 div 0 translate
               }{
            DrawY MediaW le DrawX medialength le and {
               MediaW DrawX 0 setpage
               0 MediaW DrawY sub 2 div translate
               }{
               AbortMessage
               } ifelse
               } ifelse
            }{
            DrawY MediaW le DrawX medialength le and {
               MediaW DrawX 0 setpage
               0 MediaW DrawY sub 2 div translate
               }{
            DrawX MediaW le DrawY medialength le and {
               MediaW DrawY 1 setpage
               MediaW DrawX sub 2 div 0 translate
               }{
               AbortMessage
               } ifelse
               } ifelse
            } ifelse
         end
      }{
      % this is for machines that can NOT tell the media size:
      % (Ghostscript doesn't like this!)
      /Product product length string def
      /i 0 def
      product { dup 97 lt { 32 add } if Product exch i exch put /i i 1 add def } forall 
      Product (ghostscript) search dup /IsGhostscript exch def
      { pop pop } if
      pop
      IsGhostscript not {
         statusdict /setpage known {
            statusdict begin
               RotateDrawing {
                  LeftMargin PageHeight add BotMargin DrawY add
                  }{
                  BotMargin DrawY add LeftMargin DrawX add 
                  } ifelse
               0 setpage
               end
            } if
         } if
      % set clipping boundary:
      newpath
      LeftMargin BotMargin moveto
      0 PageHeight rlineto
      PageWidth  0 rlineto
      0 PageHeight neg rlineto
      closepath
      clip
      % set the origin:
      LeftMargin BotMargin translate
      RotateDrawing {
         0 PageHeight translate
         -90 rotate
         PageHeight Column mul neg PageWidth Row mul neg translate
         }{
         PageWidth Column mul neg PageHeight Row mul neg translate
         } ifelse
      } ifelse
   % move the lower left corner of the drawing to the origin:
   MinDrawX neg MinDrawY neg translate
   
   % Linestyle:
   
   1 setlinecap
   1 setlinejoin
   
   % invert drawing:
   newpath
   MinDrawX MinDrawY moveto
   MaxDrawX MinDrawY lineto
   MaxDrawX MaxDrawY lineto
   MinDrawX MaxDrawY lineto
   0 setgray
   closepath fill
   1 setgray
   
   } def

% TheDrawing

gsave 0 0 SelectPage
2540 2540 1042216 2540 0 l
1042216 2540 1042216 1055372 0 l
1042216 1055372 2540 1055372 0 l
2540 1055372 2540 2540 0 l
975868 60452 15000 0 c
975868 60452 9906 254 c
965708 50292 986028 70612 254 l
971804 1004824 15000 0 c
971804 1004824 9906 254 c
961644 994664 981964 1014984 254 l
69088 1004316 15000 0 c
69088 1004316 9906 254 c
58928 994156 79248 1014476 254 l
80772 56388 15000 0 c
80772 56388 9906 254 c
70612 46228 90932 66548 254 l
822363 979678 822363 995948 1524 l
827786 995948 816939 995948 1524 l
803280 995948 808703 995948 1524 l
808703 995948 811414 993236 1524 l
811414 993236 811414 982390 1524 l
811414 982390 808703 979678 1524 l
808703 979678 803280 979678 1524 l
803280 979678 800568 982390 1524 l
800568 982390 800568 993236 1524 l
800568 993236 803280 995948 1524 l
795043 979678 795043 995948 1524 l
795043 995948 786908 995948 1524 l
786908 995948 784196 993236 1524 l
784196 993236 784196 987813 1524 l
784196 987813 786908 985101 1524 l
786908 985101 795043 985101 1524 l
644906 979678 639483 979678 1524 l
642194 979678 642194 995948 1524 l
644906 995948 639483 995948 1524 l
633992 979678 633992 990525 1524 l
633992 990525 631280 990525 1524 l
631280 990525 628568 987813 1524 l
628568 987813 628568 979678 1524 l
628568 987813 625857 990525 1524 l
625857 990525 623145 987813 1524 l
623145 987813 623145 979678 1524 l
617620 974255 617620 990525 1524 l
617620 990525 609485 990525 1524 l
609485 990525 606773 987813 1524 l
606773 987813 606773 982390 1524 l
606773 982390 609485 979678 1524 l
609485 979678 617620 979678 1524 l
593114 979678 598537 979678 1524 l
598537 979678 601249 982390 1524 l
601249 982390 601249 987813 1524 l
601249 987813 598537 990525 1524 l
598537 990525 593114 990525 1524 l
593114 990525 590402 987813 1524 l
590402 987813 590402 985101 1524 l
590402 985101 601249 985101 1524 l
574030 995948 574030 979678 1524 l
574030 979678 582165 979678 1524 l
582165 979678 584877 982390 1524 l
584877 982390 584877 987813 1524 l
584877 987813 582165 990525 1524 l
582165 990525 574030 990525 1524 l
565794 990525 560370 990525 1524 l
560370 990525 557659 987813 1524 l
557659 987813 557659 979678 1524 l
557659 979678 565794 979678 1524 l
565794 979678 568505 982390 1524 l
568505 982390 565794 985101 1524 l
565794 985101 557659 985101 1524 l
552134 979678 552134 990525 1524 l
552134 990525 543999 990525 1524 l
543999 990525 541287 987813 1524 l
541287 987813 541287 979678 1524 l
524916 990525 533051 990525 1524 l
533051 990525 535762 987813 1524 l
535762 987813 535762 982390 1524 l
535762 982390 533051 979678 1524 l
533051 979678 524916 979678 1524 l
511256 979678 516679 979678 1524 l
516679 979678 519391 982390 1524 l
519391 982390 519391 987813 1524 l
519391 987813 516679 990525 1524 l
516679 990525 511256 990525 1524 l
511256 990525 508544 987813 1524 l
508544 987813 508544 985101 1524 l
508544 985101 519391 985101 1524 l
486648 979678 486648 995948 1524 l
486648 995948 481224 990525 1524 l
481224 990525 475801 995948 1524 l
475801 995948 475801 979678 1524 l
462141 979678 467564 979678 1524 l
467564 979678 470276 982390 1524 l
470276 982390 470276 987813 1524 l
470276 987813 467564 990525 1524 l
467564 990525 462141 990525 1524 l
462141 990525 459429 987813 1524 l
459429 987813 459429 985101 1524 l
459429 985101 470276 985101 1524 l
451193 990525 445770 990525 1524 l
445770 990525 443058 987813 1524 l
443058 987813 443058 979678 1524 l
443058 979678 451193 979678 1524 l
451193 979678 453904 982390 1524 l
453904 982390 451193 985101 1524 l
451193 985101 443058 985101 1524 l
437533 979678 429398 979678 1524 l
429398 979678 426686 982390 1524 l
426686 982390 429398 985101 1524 l
429398 985101 434821 985101 1524 l
434821 985101 437533 987813 1524 l
437533 987813 434821 990525 1524 l
434821 990525 426686 990525 1524 l
421161 990525 421161 982390 1524 l
421161 982390 418450 979678 1524 l
418450 979678 410315 979678 1524 l
410315 979678 410315 990525 1524 l
404790 979678 404790 990525 1524 l
404790 985101 399366 990525 1524 l
399366 990525 396655 990525 1524 l
383012 979678 388435 979678 1524 l
388435 979678 391147 982390 1524 l
391147 982390 391147 987813 1524 l
391147 987813 388435 990525 1524 l
388435 990525 383012 990525 1524 l
383012 990525 380300 987813 1524 l
380300 987813 380300 985101 1524 l
380300 985101 391147 985101 1524 l
374775 979678 374775 990525 1524 l
374775 990525 372064 990525 1524 l
372064 990525 369352 987813 1524 l
369352 987813 369352 979678 1524 l
369352 987813 366640 990525 1524 l
366640 990525 363929 987813 1524 l
363929 987813 363929 979678 1524 l
350269 979678 355692 979678 1524 l
355692 979678 358404 982390 1524 l
358404 982390 358404 987813 1524 l
358404 987813 355692 990525 1524 l
355692 990525 350269 990525 1524 l
350269 990525 347557 987813 1524 l
347557 987813 347557 985101 1524 l
347557 985101 358404 985101 1524 l
342032 979678 342032 990525 1524 l
342032 990525 333897 990525 1524 l
333897 990525 331186 987813 1524 l
331186 987813 331186 979678 1524 l
322949 993236 322949 982390 1524 l
322949 982390 320237 979678 1524 l
325661 990525 320237 990525 1524 l
916432 299720 916432 312928 13208 l
916432 401320 916432 414528 13208 l
916432 83820 916432 97028 13208 l
916432 185420 916432 198628 13208 l
624332 83820 624332 97028 13208 l
624332 185420 624332 198628 13208 l
332232 83820 332232 97028 13208 l
332232 185420 332232 198628 13208 l
332232 299720 332232 312928 13208 l
332232 401320 332232 414528 13208 l
332232 744220 332232 757428 13208 l
332232 845820 332232 859028 13208 l
624332 744220 624332 757428 13208 l
624332 845820 624332 859028 13208 l
916432 744220 916432 757428 13208 l
916432 845820 916432 859028 13208 l
107379 613264 125286 613264 17907 l
107379 563264 125286 563264 17907 l
325628 712724 338836 712724 13208 l
325628 687324 338836 687324 13208 l
325628 560324 338836 560324 13208 l
401828 560324 415036 560324 13208 l
325628 661924 338836 661924 13208 l
325628 636524 338836 636524 13208 l
325628 585724 338836 585724 13208 l
325628 611124 338836 611124 13208 l
401828 585724 415036 585724 13208 l
401828 611124 415036 611124 13208 l
401828 636524 415036 636524 13208 l
401828 661924 415036 661924 13208 l
401828 687324 415036 687324 13208 l
401828 712724 415036 712724 13208 l
484632 674624 16002 16002 0.0 o
484632 649224 16002 16002 0.0 o
560832 598424 16002 16002 0.0 o
560832 623824 16002 16002 0.0 o
484632 623824 16002 16002 0.0 o
484632 598424 16002 16002 0.0 o
560832 649224 16002 16002 0.0 o
560832 674624 16002 16002 0.0 o
401828 407924 415036 407924 13208 l
401828 382524 415036 382524 13208 l
401828 255524 415036 255524 13208 l
478028 255524 491236 255524 13208 l
401828 357124 415036 357124 13208 l
401828 331724 415036 331724 13208 l
401828 280924 415036 280924 13208 l
401828 306324 415036 306324 13208 l
478028 280924 491236 280924 13208 l
478028 306324 491236 306324 13208 l
478028 331724 491236 331724 13208 l
478028 357124 491236 357124 13208 l
478028 382524 491236 382524 13208 l
478028 407924 491236 407924 13208 l
713232 526542 713232 543306 16764 l
738632 526542 738632 543306 16764 l
764032 526542 764032 543306 16764 l
738632 684784 16510 0 c
738632 684784 9906 254 c
728472 674624 748792 694944 254 l
820928 712724 834136 712724 13208 l
820928 687324 834136 687324 13208 l
820928 560324 834136 560324 13208 l
897128 560324 910336 560324 13208 l
820928 661924 834136 661924 13208 l
820928 636524 834136 636524 13208 l
820928 585724 834136 585724 13208 l
820928 611124 834136 611124 13208 l
897128 585724 910336 585724 13208 l
897128 611124 910336 611124 13208 l
897128 636524 910336 636524 13208 l
897128 661924 910336 661924 13208 l
897128 687324 910336 687324 13208 l
897128 712724 910336 712724 13208 l
535432 463804 535432 479044 15240 l
560832 463804 560832 479044 15240 l
586232 463804 586232 479044 15240 l
611632 463804 611632 479044 15240 l
637032 463804 637032 479044 15240 l
662432 463804 662432 479044 15240 l
687832 463804 687832 479044 15240 l
713232 463804 713232 479044 15240 l
738632 463804 738632 479044 15240 l
764032 463804 764032 479044 15240 l
878332 402844 878332 387604 15240 l
802132 402844 802132 387604 15240 l
751332 402844 751332 387604 15240 l
700532 402844 700532 387604 15240 l
700532 326644 700532 311404 15240 l
751332 326644 751332 311404 15240 l
802132 326644 802132 311404 15240 l
878332 326644 878332 311404 15240 l
878332 186944 878332 171704 15240 l
802132 186944 802132 171704 15240 l
751332 186944 751332 171704 15240 l
700532 186944 700532 171704 15240 l
700532 110744 700532 95504 15240 l
751332 110744 751332 95504 15240 l
802132 110744 802132 95504 15240 l
878332 110744 878332 95504 15240 l
586232 186944 586232 171704 15240 l
510032 186944 510032 171704 15240 l
459232 186944 459232 171704 15240 l
408432 186944 408432 171704 15240 l
408432 110744 408432 95504 15240 l
459232 110744 459232 95504 15240 l
510032 110744 510032 95504 15240 l
586232 110744 586232 95504 15240 l
294132 186944 294132 171704 15240 l
217932 186944 217932 171704 15240 l
167132 186944 167132 171704 15240 l
116332 186944 116332 171704 15240 l
116332 110744 116332 95504 15240 l
167132 110744 167132 95504 15240 l
217932 110744 217932 95504 15240 l
294132 110744 294132 95504 15240 l
294132 415544 294132 400304 15240 l
217932 415544 217932 400304 15240 l
167132 415544 167132 400304 15240 l
116332 415544 116332 400304 15240 l
116332 339344 116332 324104 15240 l
167132 339344 167132 324104 15240 l
217932 339344 217932 324104 15240 l
294132 339344 294132 324104 15240 l
294132 847344 294132 832104 15240 l
217932 847344 217932 832104 15240 l
167132 847344 167132 832104 15240 l
116332 847344 116332 832104 15240 l
116332 771144 116332 755904 15240 l
167132 771144 167132 755904 15240 l
217932 771144 217932 755904 15240 l
294132 771144 294132 755904 15240 l
586232 847344 586232 832104 15240 l
510032 847344 510032 832104 15240 l
459232 847344 459232 832104 15240 l
408432 847344 408432 832104 15240 l
408432 771144 408432 755904 15240 l
459232 771144 459232 755904 15240 l
510032 771144 510032 755904 15240 l
586232 771144 586232 755904 15240 l
878332 847344 878332 832104 15240 l
802132 847344 802132 832104 15240 l
751332 847344 751332 832104 15240 l
700532 847344 700532 832104 15240 l
700532 771144 700532 755904 15240 l
751332 771144 751332 755904 15240 l
802132 771144 802132 755904 15240 l
878332 771144 878332 755904 15240 l
573532 712724 13208 13208 180.0 o
471932 712724 13208 13208 180.0 o
637032 331724 13208 13208 0.0 o
637032 230124 13208 13208 0.0 o
667004 179324 13208 13208 0.0 o
667004 280924 13208 13208 0.0 o
357632 166624 13208 13208 0.0 o
357632 268224 13208 13208 0.0 o
78232 103124 13208 13208 0.0 o
78232 204724 13208 13208 0.0 o
78232 331724 13208 13208 0.0 o
78232 230124 13208 13208 0.0 o
107379 717404 125286 717404 17907 l
107379 667404 125286 667404 17907 l
107379 509124 125286 509124 17907 l
107379 459124 125286 459124 17907 l
649732 567944 649732 552704 15240 l
624332 567944 624332 552704 15240 l
598932 567944 598932 552704 15240 l
573532 567944 573532 552704 15240 l
662432 649224 13208 13208 0.0 o
713232 649224 13208 13208 0.0 o
789432 636524 13208 13208 180.0 o
738632 636524 13208 13208 180.0 o
243948 943674 243948 925767 17907 l
193948 943674 193948 925767 17907 l
840232 395224 10064 p
840232 395224 11064 p
840232 395224 11684 p
840232 395224 840232 288580 6096 l
837692 288580 2540 6096 315.00 360.00 1 a
839488 286784 820420 267716 6096 l
820420 267716 800100 267716 6096 l
800100 267716 20000 p
446532 585724 484632 623824 6096 l
198628 613156 20000 p
198628 613156 283972 613156 6096 l
283972 613156 20000 p
445516 585724 1016 6096 270.00 360.00 1 a
445516 584708 377444 584708 6096 l
377444 584708 20000 p
78232 230124 357632 230124 6096 l
357632 230124 637032 230124 6096 l
357632 268224 357632 230124 6096 l
227692 563264 268732 522224 6096 l
268732 522224 357632 522224 6096 l
357632 522224 459232 522224 6096 l
459232 522224 510032 573024 6096 l
510032 573024 510032 636524 6096 l
510032 636524 497332 649224 6096 l
497332 649224 484632 649224 6096 l
357632 268224 357632 522224 6096 l
226568 563264 1124 6096 0.00 90.00 1 a
226568 564388 194564 564388 6096 l
194564 564388 20000 p
738632 471424 738632 534924 6096 l
573532 560324 522732 560324 6096 l
522732 560324 383032 420624 6096 l
383032 420624 383032 268224 6096 l
383032 268224 395732 255524 6096 l
598932 560324 598932 585724 6096 l
598932 585724 611632 598424 6096 l
611632 598424 725932 598424 6096 l
713232 649224 725932 649224 6096 l
725932 649224 738632 636524 6096 l
395732 255524 450596 255524 6096 l
450596 255524 20000 p
725932 598424 737888 610380 6096 l
736092 612176 2540 6096 315.00 360.00 1 a
738632 612176 738632 636524 6096 l
941560 636796 954532 623824 6096 l
954532 623824 954532 509524 6096 l
954532 509524 878332 433324 6096 l
878332 433324 700532 433324 6096 l
939764 635000 2540 6096 45.00 90.00 1 a
939764 637540 873252 637540 6096 l
873252 637540 20000 p
700532 433324 692106 441750 6096 l
690372 440015 2453 6096 45.00 90.00 1 a
690372 442468 20000 p
687832 420624 891032 420624 6096 l
891032 420624 967232 496824 6096 l
967232 496824 967232 661924 6096 l
967232 661924 941832 687324 6096 l
941832 687324 941560 687052 6096 l
939764 688848 2540 6096 270.00 315.00 1 a
939764 686308 865124 686308 6096 l
865124 686308 20000 p
687832 420624 666732 441724 6096 l
664936 439928 2540 6096 45.00 90.00 1 a
664936 442468 661924 442468 6096 l
661924 442468 20000 p
929132 585724 941832 573024 6096 l
941832 573024 941832 522224 6096 l
941832 522224 865632 446024 6096 l
865632 446024 725932 446024 6096 l
929132 585724 928860 585452 6096 l
927064 587248 2540 6096 270.00 315.00 1 a
927064 584708 869188 584708 6096 l
869188 584708 20000 p
713232 458724 725932 446024 6096 l
713232 471424 713232 458724 6096 l
230632 801624 254254 801624 6096 l
254254 801624 540004 801624 6096 l
540004 801624 817844 801624 6096 l
198628 667258 20000 p
230632 801624 20000 p
198628 667258 253510 722140 6096 l
251714 723936 2540 6096 315.00 360.00 1 a
254254 723936 254254 801624 6096 l
541020 732282 20000 p
541020 732282 541020 799556 6096 l
538480 799556 2540 6096 0.00 45.00 1 a
540276 801352 540004 801624 6096 l
817844 799084 2540 6096 45.00 90.00 1 a
819640 800880 832612 787908 6096 l
832612 787908 832612 751332 6096 l
832612 751332 20000 p
484632 331724 522732 331724 6096 l
522732 331724 560832 369824 6096 l
562058 371050 1734 6096 180.00 225.00 1 a
560324 371050 560324 426212 6096 l
560324 426212 20000 p
522732 280924 588028 346220 6096 l
586232 348016 2540 6096 315.00 360.00 1 a
588772 348016 588772 426212 6096 l
588772 426212 20000 p
522732 280924 454696 280924 6096 l
454696 283464 2540 6096 225.00 270.00 1 a
452900 281668 446532 288036 6096 l
446532 288036 20000 p
459232 379004 459232 433324 6096 l
459232 433324 522732 496824 6096 l
522732 496824 598932 496824 6096 l
598932 496824 611632 484124 6096 l
611632 484124 611632 471424 6096 l
456692 379004 2540 6096 315.00 360.00 1 a
458488 377208 438404 357124 6096 l
438404 357124 20000 p
764032 471424 764032 534924 6096 l
789432 636524 764032 611124 6096 l
764032 611124 764032 577124 6096 l
766572 577124 2540 6096 180.00 225.00 1 a
764776 575328 804164 535940 6096 l
804164 535940 20000 p
499364 438404 20000 p
499364 438404 531132 406636 6096 l
529336 404840 2540 6096 0.00 45.00 1 a
531876 404840 531876 389636 6096 l
531876 389636 535196 386316 6096 l
536992 388112 2540 6096 225.00 270.00 1 a
536992 385572 637540 385572 6096 l
637540 385572 20000 p
312928 268224 90932 268224 6096 l
90932 268224 52832 230124 6096 l
52832 230124 52832 153924 6096 l
52832 153924 68344 138412 6096 l
312928 268224 332740 288036 6096 l
332740 288036 332740 305816 6096 l
332740 305816 332232 306324 6096 l
70140 140208 2540 6096 225.00 270.00 1 a
70140 137668 223012 137668 6096 l
223012 137668 255524 105156 6096 l
255524 105156 20000 p
982980 159040 982980 726948 6096 l
982980 726948 959340 750588 6096 l
957544 748792 2540 6096 45.00 90.00 1 a
957544 751332 917956 751332 6096 l
917956 92964 982236 157244 6096 l
980440 159040 2540 6096 315.00 360.00 1 a
916432 306324 8128 h
916432 407924 8128 h
916432 90424 8128 h
916432 192024 8128 h
624332 90424 8128 h
624332 192024 8128 h
332232 90424 8128 h
332232 192024 8128 h
332232 306324 8128 h
332232 407924 8128 h
332232 750824 8128 h
332232 852424 8128 h
624332 750824 8128 h
624332 852424 8128 h
916432 750824 8128 h
916432 852424 8128 h
116332 613264 11938 h
116332 563264 11938 h
332232 712724 8128 h
332232 687324 8128 h
332232 560324 8128 h
408432 560324 8128 h
332232 661924 8128 h
332232 636524 8128 h
332232 585724 8128 h
332232 611124 8128 h
408432 585724 8128 h
408432 611124 8128 h
408432 636524 8128 h
408432 661924 8128 h
408432 687324 8128 h
408432 712724 8128 h
484632 674624 8128 h
484632 649224 8128 h
560832 598424 8128 h
560832 623824 8128 h
484632 623824 8128 h
484632 598424 8128 h
560832 649224 8128 h
560832 674624 8128 h
408432 407924 8128 h
408432 382524 8128 h
408432 255524 8128 h
484632 255524 8128 h
408432 357124 8128 h
408432 331724 8128 h
408432 280924 8128 h
408432 306324 8128 h
484632 280924 8128 h
484632 306324 8128 h
484632 331724 8128 h
484632 357124 8128 h
484632 382524 8128 h
484632 407924 8128 h
713232 534924 11176 h
738632 534924 11176 h
764032 534924 11176 h
827532 712724 8128 h
827532 687324 8128 h
827532 560324 8128 h
903732 560324 8128 h
827532 661924 8128 h
827532 636524 8128 h
827532 585724 8128 h
827532 611124 8128 h
903732 585724 8128 h
903732 611124 8128 h
903732 636524 8128 h
903732 661924 8128 h
903732 687324 8128 h
903732 712724 8128 h
535432 471424 10160 h
560832 471424 10160 h
586232 471424 10160 h
611632 471424 10160 h
637032 471424 10160 h
662432 471424 10160 h
687832 471424 10160 h
713232 471424 10160 h
738632 471424 10160 h
764032 471424 10160 h
878332 395224 10160 h
802132 395224 10160 h
751332 395224 10160 h
700532 395224 10160 h
700532 319024 10160 h
751332 319024 10160 h
802132 319024 10160 h
878332 319024 10160 h
878332 179324 10160 h
802132 179324 10160 h
751332 179324 10160 h
700532 179324 10160 h
700532 103124 10160 h
751332 103124 10160 h
802132 103124 10160 h
878332 103124 10160 h
586232 179324 10160 h
510032 179324 10160 h
459232 179324 10160 h
408432 179324 10160 h
408432 103124 10160 h
459232 103124 10160 h
510032 103124 10160 h
586232 103124 10160 h
294132 179324 10160 h
217932 179324 10160 h
167132 179324 10160 h
116332 179324 10160 h
116332 103124 10160 h
167132 103124 10160 h
217932 103124 10160 h
294132 103124 10160 h
294132 407924 10160 h
217932 407924 10160 h
167132 407924 10160 h
116332 407924 10160 h
116332 331724 10160 h
167132 331724 10160 h
217932 331724 10160 h
294132 331724 10160 h
294132 839724 10160 h
217932 839724 10160 h
167132 839724 10160 h
116332 839724 10160 h
116332 763524 10160 h
167132 763524 10160 h
217932 763524 10160 h
294132 763524 10160 h
586232 839724 10160 h
510032 839724 10160 h
459232 839724 10160 h
408432 839724 10160 h
408432 763524 10160 h
459232 763524 10160 h
510032 763524 10160 h
586232 763524 10160 h
878332 839724 10160 h
802132 839724 10160 h
751332 839724 10160 h
700532 839724 10160 h
700532 763524 10160 h
751332 763524 10160 h
802132 763524 10160 h
878332 763524 10160 h
573532 712724 8128 h
471932 712724 8128 h
637032 331724 8128 h
637032 230124 8128 h
667004 179324 8128 h
667004 280924 8128 h
357632 166624 8128 h
357632 268224 8128 h
78232 103124 8128 h
78232 204724 8128 h
78232 331724 8128 h
78232 230124 8128 h
116332 717404 11938 h
116332 667404 11938 h
116332 509124 11938 h
116332 459124 11938 h
649732 560324 10160 h
624332 560324 10160 h
598932 560324 10160 h
573532 560324 10160 h
662432 649224 8128 h
713232 649224 8128 h
789432 636524 8128 h
738632 636524 8128 h
243948 934720 11938 h
193948 934720 11938 h
840232 395224 6000 h
840232 395224 7000 h
840232 395224 7620 h
800100 267716 10000 h
198628 613156 10000 h
283972 613156 10000 h
377444 584708 10000 h
194564 564388 10000 h
450596 255524 10000 h
873252 637540 10000 h
690372 442468 10000 h
865124 686308 10000 h
661924 442468 10000 h
869188 584708 10000 h
198628 667258 10000 h
230632 801624 10000 h
541020 732282 10000 h
832612 751332 10000 h
560324 426212 10000 h
588772 426212 10000 h
446532 288036 10000 h
438404 357124 10000 h
804164 535940 10000 h
499364 438404 10000 h
637540 385572 10000 h
255524 105156 10000 h
showpage grestore
